temperature,kinematic_viscosity
0,1.793
1,1.732
2,1.674
3,1.619
4,1.522
5,1.52
6,1.474
7,1.429
8,1.386
9,1.346
10,1.307
11,1.27
12,1.235
13,1.201
14,1.169
15,1.138
16,1.108
17,1.08
18,1.053
19,1.027
20,1.002
21,0.978
22,0.955
23,0.933
24,0.911
25,0.893
26,0.876
27,0.854
28,0.836
29,0.818
30,0.802
31,0.785
32,0.769
33,0.753
34,0.738
35,0.724
36,0.711
37,0.697
38,0.684
39,0.671
40,0.658
45,0.602
50,0.554
55,0.511
60,0.476
65,0.443
70,0.413
75,0.386
80,0.363
85,0.342
